#cols::logP,MgSiO3(s),Mg2SiO4(s),SiO2(s),MgO(s),FeO(s),FeS(s),Fe2O3(s),Fe(s),TiO2(s),Al2O3(s),Mg,SiO,H2O,Fe,H2S,TiO,Al,nuclei
  1.3031e+00  4.9054e-14  1.1834e-15  2.8770e-12  1.6058e-13  7.2816e-23  1.0460e-16  1.2086e-45  8.5109e-14  1.5884e-17  1.5550e-14  1.1141e-04  2.3565e-04  7.1031e-08  3.8091e-11  7.9914e-04  2.7201e-19  1.0880e-12  5.9035e-13
  1.3237e+00  5.5860e-14  1.3475e-15  3.2761e-12  1.8286e-13  8.2919e-23  1.1911e-16  1.3763e-45  9.6918e-14  1.8088e-17  1.7708e-14  1.1141e-04  2.3565e-04  7.1031e-08  3.8091e-11  7.9914e-04  2.7201e-19  1.0880e-12  6.7226e-13
  1.3443e+00  6.5734e-14  1.6431e-15  3.7812e-12  2.1218e-13  9.7443e-23  1.3802e-16  1.6508e-45  1.1018e-13  2.0544e-17  2.0127e-14  1.1141e-04  2.3565e-04  7.1031e-08  3.8091e-11  7.9914e-04  2.7201e-19  1.0880e-12  7.6351e-13
  1.3649e+00  7.8989e-14  2.0299e-15  4.4136e-12  2.4989e-13  1.1558e-22  1.6224e-16  1.9984e-45  1.2511e-13  2.3285e-17  2.2847e-14  1.1141e-04  2.3565e-04  7.1031e-08  3.8091e-11  7.9914e-04  2.7201e-19  1.0880e-12  8.6540e-13
  1.3855e+00  9.6222e-14  2.5276e-15  5.1992e-12  2.9769e-13  1.3814e-22  1.9288e-16  2.4378e-45  1.4194e-13  2.6351e-17  2.5908e-14  1.1141e-04  2.3565e-04  7.1030e-08  3.8090e-11  7.9914e-04  2.7200e-19  1.0880e-12  9.7935e-13
  1.4061e+00  1.1830e-13  3.1670e-15  6.1690e-12  3.5770e-13  1.6614e-22  2.3130e-16  2.9922e-45  1.6094e-13  2.9786e-17  2.9358e-14  1.1141e-04  2.3565e-04  7.1030e-08  3.8090e-11  7.9914e-04  2.7200e-19  1.0879e-12  1.1070e-12
  1.4267e+00  1.4637e-13  3.9876e-15  7.3600e-12  4.3257e-13  2.0079e-22  2.7918e-16  3.6908e-45  1.8243e-13  3.3640e-17  3.3251e-14  1.1141e-04  2.3565e-04  7.1030e-08  3.8089e-11  7.9914e-04  2.7199e-19  1.0879e-12  1.2503e-12
  1.4473e+00  1.8193e-13  5.0403e-15  8.8167e-12  5.2558e-13  2.4361e-22  3.3856e-16  4.5700e-45  2.0674e-13  3.7969e-17  3.7649e-14  1.1141e-04  2.3565e-04  7.1030e-08  3.8088e-11  7.9914e-04  2.7199e-19  1.0878e-12  1.4111e-12
  1.4679e+00  2.2688e-13  6.3896e-15  1.0592e-11  6.4073e-13  2.9643e-22  4.1191e-16  5.6753e-45  2.3427e-13  4.2836e-17  4.2619e-14  1.1141e-04  2.3565e-04  7.1030e-08  3.8087e-11  7.9914e-04  2.7198e-19  1.0878e-12  1.5920e-12
  1.4885e+00  2.8360e-13  8.1180e-15  1.2750e-11  7.8295e-13  3.6149e-22  5.0227e-16  7.0632e-45  2.6546e-13  4.8312e-17  4.8239e-14  1.1141e-04  2.3565e-04  7.1030e-08  3.8086e-11  7.9914e-04  2.7197e-19  1.0877e-12  1.7955e-12
  1.5091e+00  3.5510e-13  1.0330e-14  1.5367e-11  9.5825e-13  4.4154e-22  6.1328e-16  8.8046e-45  3.0081e-13  5.4476e-17  5.4595e-14  1.1141e-04  2.3565e-04  7.1029e-08  3.8085e-11  7.9914e-04  2.7196e-19  1.0876e-12  2.0246e-12
  1.5297e+00  4.4513e-13  1.3160e-14  1.8532e-11  1.1739e-12  5.3991e-22  7.4938e-16  1.0987e-44  3.4088e-13  6.1420e-17  6.1787e-14  1.1141e-04  2.3565e-04  7.1029e-08  3.8083e-11  7.9914e-04  2.7195e-19  1.0874e-12  2.2827e-12
  1.5503e+00  5.5839e-13  1.6777e-14  2.2353e-11  1.4389e-12  6.6066e-22  9.1589e-16  1.3720e-44  3.8632e-13  6.9243e-17  6.9925e-14  1.1141e-04  2.3565e-04  7.1028e-08  3.8081e-11  7.9914e-04  2.7194e-19  1.0873e-12  2.5734e-12
  1.5709e+00  7.0076e-13  2.1396e-14  2.6957e-11  1.7640e-12  8.0871e-22  1.1192e-15  1.7139e-44  4.3784e-13  7.8059e-17  7.9133e-14  1.1141e-04  2.3565e-04  7.1028e-08  3.8078e-11  7.9914e-04  2.7192e-19  1.0871e-12  2.9011e-12
  1.5915e+00  8.7952e-13  2.7289e-14  3.2496e-11  2.1622e-12  9.9004e-22  1.3671e-15  2.1412e-44  4.9625e-13  8.7997e-17  8.9551e-14  1.1141e-04  2.3565e-04  7.1027e-08  3.8076e-11  7.9914e-04  2.7190e-19  1.0869e-12  3.2704e-12
  1.6121e+00  1.1038e-12  3.4802e-14  3.9147e-11  2.6494e-12  1.2119e-21  1.6688e-15  2.6747e-44  5.6247e-13  9.9198e-17  1.0134e-13  1.1141e-04  2.3565e-04  7.1026e-08  3.8072e-11  7.9914e-04  2.7188e-19  1.0867e-12  3.6867e-12
  1.6327e+00  1.3849e-12  4.4371e-14  4.7122e-11  3.2447e-12  1.4830e-21  2.0355e-15  3.3400e-44  6.3753e-13  1.1182e-16  1.1467e-13  1.1141e-04  2.3565e-04  7.1025e-08  3.8069e-11  7.9914e-04  2.7186e-19  1.0865e-12  4.1559e-12
  1.6533e+00  1.7368e-12  5.6546e-14  5.6669e-11  3.9711e-12  1.8141e-21  2.4802e-15  4.1689e-44  7.2258e-13  1.2605e-16  1.2974e-13  1.1141e-04  2.3565e-04  7.1024e-08  3.8065e-11  7.9914e-04  2.7183e-19  1.0863e-12  4.6848e-12
  1.6739e+00  2.1769e-12  7.2022e-14  6.8079e-11  4.8562e-12  2.2177e-21  3.0188e-15  5.2005e-44  8.1895e-13  1.4209e-16  1.4679e-13  1.1141e-04  2.3565e-04  7.1022e-08  3.8060e-11  7.9914e-04  2.7180e-19  1.0860e-12  5.2808e-12
  1.6945e+00  2.7267e-12  9.1674e-14  8.1696e-11  5.9333e-12  2.7094e-21  3.6702e-15  6.4828e-44  9.2809e-13  1.6016e-16  1.6605e-13  1.1141e-04  2.3565e-04  7.1020e-08  3.8055e-11  7.9914e-04  2.7177e-19  1.0857e-12  5.9524e-12
  1.7151e+00  3.4128e-12  1.1660e-13  9.7922e-11  7.2422e-12  3.3076e-21  4.4566e-15  8.0750e-44  1.0516e-12  1.8052e-16  1.8781e-13  1.1141e-04  2.3565e-04  7.1018e-08  3.8049e-11  7.9914e-04  2.7173e-19  1.0853e-12  6.7089e-12
  1.7357e+00  4.2678e-12  1.4818e-13  1.1723e-10  8.8306e-12  4.0345e-21  5.4044e-15  1.0050e-43  1.1915e-12  2.0344e-16  2.1238e-13  1.1141e-04  2.3565e-04  7.1016e-08  3.8043e-11  7.9914e-04  2.7169e-19  1.0849e-12  7.5609e-12
  1.7563e+00  5.3322e-12  1.8815e-13  1.4016e-10  1.0755e-11  4.9167e-21  6.5450e-15  1.2495e-43  1.3497e-12  2.2925e-16  2.4012e-13  1.1141e-04  2.3565e-04  7.1013e-08  3.8035e-11  7.9914e-04  2.7165e-19  1.0845e-12  8.5201e-12
  1.7769e+00  6.6552e-12  2.3868e-13  1.6736e-10  1.3085e-11  5.9861e-21  7.9152e-15  1.5520e-43  1.5285e-12  2.5830e-16  2.7141e-13  1.1141e-04  2.3565e-04  7.1009e-08  3.8027e-11  7.9914e-04  2.7159e-19  1.0840e-12  9.5996e-12
  1.7976e+00  8.2976e-12  3.0247e-13  1.9958e-10  1.5899e-11  7.2808e-21  9.5587e-15  1.9258e-43  1.7307e-12  2.9097e-16  3.0671e-13  1.1141e-04  2.3565e-04  7.1005e-08  3.8018e-11  7.9914e-04  2.7154e-19  1.0835e-12  1.0814e-11
  1.8182e+00  1.0333e-11  3.8291e-13  2.3767e-10  1.9293e-11  8.8462e-21  1.1526e-14  2.3868e-43  1.9590e-12  3.2772e-16  3.4649e-13  1.1141e-04  2.3565e-04  7.1000e-08  3.8008e-11  7.9914e-04  2.7147e-19  1.0830e-12  1.2180e-11
  1.8388e+00  1.2853e-11  4.8420e-13  2.8265e-10  2.3382e-11  1.0736e-20  1.3878e-14  2.9549e-43  2.2168e-12  3.6902e-16  3.9130e-13  1.1141e-04  2.3565e-04  7.0995e-08  3.7996e-11  7.9914e-04  2.7140e-19  1.0824e-12  1.3715e-11
  1.8594e+00  1.5967e-11  6.1160e-13  3.3567e-10  2.8300e-11  1.3015e-20  1.6685e-14  3.6536e-43  2.5076e-12  4.1542e-16  4.4175e-13  1.1141e-04  2.3565e-04  7.0988e-08  3.7984e-11  7.9914e-04  2.7133e-19  1.0817e-12  1.5439e-11
  1.8800e+00  1.9808e-11  7.7161e-13  3.9807e-10  3.4204e-11  1.5759e-20  2.0028e-14  4.5120e-43  2.8355e-12  4.6752e-16  4.9852e-13  1.1141e-04  2.3565e-04  7.0980e-08  3.7969e-11  7.9914e-04  2.7124e-19  1.0810e-12  1.7376e-11
  1.9006e+00  2.4539e-11  9.7229e-13  4.7139e-10  4.1282e-11  1.9059e-20  2.4002e-14  5.5646e-43  3.2051e-12  5.2599e-16  5.6234e-13  1.1141e-04  2.3565e-04  7.0971e-08  3.7953e-11  7.9914e-04  2.7115e-19  1.0802e-12  1.9549e-11
  1.9212e+00  3.0355e-11  1.2236e-12  5.5740e-10  4.9751e-11  2.3020e-20  2.8720e-14  6.8536e-43  3.6211e-12  5.9157e-16  6.3406e-13  1.1141e-04  2.3565e-04  7.0960e-08  3.7936e-11  7.9914e-04  2.7104e-19  1.0793e-12  2.1986e-11
  1.9418e+00  3.7492e-11  1.5379e-12  6.5814e-10  5.9868e-11  2.7768e-20  3.4309e-14  8.4293e-43  4.0894e-12  6.6507e-16  7.1460e-13  1.1141e-04  2.3565e-04  7.0948e-08  3.7916e-11  7.9914e-04  2.7093e-19  1.0784e-12  2.4717e-11
  1.9624e+00  4.6232e-11  1.9304e-12  7.7593e-10  7.1933e-11  3.3451e-20  4.0918e-14  1.0352e-42  4.6158e-12  7.4740e-16  8.0496e-13  1.1141e-04  2.3565e-04  7.0933e-08  3.7894e-11  7.9914e-04  2.7080e-19  1.0774e-12  2.7777e-11
  1.9830e+00  5.6914e-11  2.4196e-12  9.1344e-10  8.6294e-11  4.0242e-20  4.8718e-14  1.2694e-42  5.2074e-12  8.3955e-16  9.0627e-13  1.1141e-04  2.3565e-04  7.0916e-08  3.7870e-11  7.9914e-04  2.7066e-19  1.0763e-12  3.1202e-11
  2.0036e+00  6.9941e-11  3.0286e-12  1.0737e-09  1.0336e-10  4.8343e-20  5.7908e-14  1.5542e-42  5.8715e-12  9.4263e-16  1.0198e-12  1.1141e-04  2.3565e-04  7.0896e-08  3.7844e-11  7.9914e-04  2.7051e-19  1.0751e-12  3.5033e-11
  2.0242e+00  8.5793e-11  3.7851e-12  1.2601e-09  1.2359e-10  5.7990e-20  6.8712e-14  1.8998e-42  6.6164e-12  1.0578e-15  1.1468e-12  1.1141e-04  2.3565e-04  7.0874e-08  3.7814e-11  7.9914e-04  2.7034e-19  1.0739e-12  3.9315e-11
  2.0448e+00  1.0504e-10  4.7235e-12  1.4765e-09  1.4754e-10  6.9459e-20  8.1392e-14  2.3183e-42  7.4514e-12  1.1865e-15  1.2890e-12  1.1141e-04  2.3565e-04  7.0847e-08  3.7781e-11  7.9914e-04  2.7016e-19  1.0725e-12  4.4098e-11
  2.0654e+00  1.2835e-10  5.8852e-12  1.7275e-09  1.7584e-10  8.3069e-20  9.6241e-14  2.8241e-42  8.3864e-12  1.3301e-15  1.4478e-12  1.1141e-04  2.3565e-04  7.0817e-08  3.7745e-11  7.9914e-04  2.6995e-19  1.0710e-12  4.9435e-11
  2.0860e+00  1.5652e-10  7.3206e-12  2.0179e-09  2.0919e-10  9.9188e-20  1.1360e-13  3.4339e-42  9.4326e-12  1.4903e-15  1.6251e-12  1.1141e-04  2.3565e-04  7.0782e-08  3.7704e-11  7.9914e-04  2.6973e-19  1.0694e-12  5.5387e-11
  2.1066e+00  1.9047e-10  9.0907e-12  2.3533e-09  2.4843e-10  1.1824e-19  1.3384e-13  4.1675e-42  1.0602e-11  1.6687e-15  1.8229e-12  1.1141e-04  2.3565e-04  7.0742e-08  3.7660e-11  7.9914e-04  2.6949e-19  1.0677e-12  6.2018e-11
  2.1272e+00  2.3127e-10  1.1269e-11  2.7400e-09  2.9450e-10  1.4072e-19  1.5740e-13  5.0477e-42  1.1908e-11  1.8673e-15  2.0434e-12  1.1141e-04  2.3565e-04  7.0695e-08  3.7611e-11  7.9914e-04  2.6923e-19  1.0658e-12  6.9399e-11
  2.1478e+00  2.8019e-10  1.3943e-11  3.1850e-09  3.4847e-10  1.6718e-19  1.8477e-13  6.1012e-42  1.3365e-11  2.0882e-15  2.2888e-12  1.1141e-04  2.3565e-04  7.0642e-08  3.7557e-11  7.9914e-04  2.6894e-19  1.0638e-12  7.7608e-11
  2.1684e+00  3.3867e-10  1.7220e-11  3.6962e-09  4.1155e-10  1.9826e-19  2.1649e-13  7.3587e-42  1.4988e-11  2.3336e-15  2.5619e-12  1.1141e-04  2.3565e-04  7.0581e-08  3.7498e-11  7.9914e-04  2.6863e-19  1.0617e-12  8.6729e-11
  2.1890e+00  4.0837e-10  2.1224e-11  4.2821e-09  4.8512e-10  2.3468e-19  2.5317e-13  8.8553e-42  1.6796e-11  2.6060e-15  2.8652e-12  1.1141e-04  2.3565e-04  7.0512e-08  3.7433e-11  7.9914e-04  2.6829e-19  1.0594e-12  9.6853e-11
  2.2096e+00  4.9120e-10  2.6105e-11  4.9526e-09  5.7072e-10  2.7727e-19  2.9549e-13  1.0631e-41  1.8806e-11  2.9081e-15  3.2020e-12  1.1141e-04  2.3564e-04  7.0433e-08  3.7361e-11  7.9914e-04  2.6792e-19  1.0569e-12  1.0808e-10
  2.2302e+00  5.8934e-10  3.2039e-11  5.7181e-09  6.7008e-10  3.2693e-19  3.4422e-13  1.2731e-41  2.1040e-11  3.2427e-15  3.5754e-12  1.1141e-04  2.3564e-04  7.0343e-08  3.7282e-11  7.9914e-04  2.6751e-19  1.0543e-12  1.2052e-10
  2.2508e+00  7.0525e-10  3.9234e-11  6.5905e-09  7.8514e-10  3.8471e-19  4.0020e-13  1.5206e-41  2.3518e-11  3.6131e-15  3.9889e-12  1.1141e-04  2.3564e-04  7.0241e-08  3.7196e-11  7.9914e-04  2.6708e-19  1.0516e-12  1.3428e-10
  2.2714e+00  8.4172e-10  4.7930e-11  7.5826e-09  9.1805e-10  4.5174e-19  4.6435e-13  1.8113e-41  2.6266e-11  4.0225e-15  4.4465e-12  1.1141e-04  2.3564e-04  7.0125e-08  3.7102e-11  7.9914e-04  2.6661e-19  1.0486e-12  1.4950e-10
  2.2920e+00  1.0019e-09  5.8409e-11  8.7085e-09  1.0712e-09  5.2928e-19  5.3769e-13  2.1514e-41  2.9307e-11  4.4746e-15  4.9521e-12  1.1141e-04  2.3564e-04  6.9995e-08  3.6999e-11  7.9914e-04  2.6610e-19  1.0455e-12  1.6630e-10
  2.3126e+00  1.1892e-09  7.0996e-11  9.9836e-09  1.2472e-09  6.1874e-19  6.2134e-13  2.5477e-41  3.2670e-11  4.9733e-15  5.5102e-12  1.1141e-04  2.3564e-04  6.9849e-08  3.6887e-11  7.9914e-04  2.6555e-19  1.0422e-12  1.8484e-10
  2.3332e+00  1.4075e-09  8.6062e-11  1.1424e-08  1.4489e-09  7.2162e-19  7.1652e-13  3.0075e-41  3.6384e-11  5.5227e-15  6.1255e-12  1.1141e-04  2.3564e-04  6.9684e-08  3.6765e-11  7.9914e-04  2.6497e-19  1.0388e-12  2.0526e-10
  2.3538e+00  1.6610e-09  1.0403e-10  1.3049e-08  1.6796e-09  8.3956e-19  8.2455e-13  3.5385e-41  4.0481e-11  6.1273e-15  6.8029e-12  1.1141e-04  2.3564e-04  6.9501e-08  3.6632e-11  7.9914e-04  2.6433e-19  1.0351e-12  2.2773e-10
  2.3744e+00  1.9545e-09  1.2538e-10  1.4877e-08  1.9425e-09  9.7434e-19  9.4685e-13  4.1488e-41  4.4994e-11  6.7918e-15  7.5479e-12  1.1141e-04  2.3564e-04  6.9296e-08  3.6489e-11  7.9914e-04  2.6366e-19  1.0313e-12  2.5243e-10
  2.3950e+00  2.2930e-09  1.5065e-10  1.6930e-08  2.2414e-09  1.1278e-18  1.0850e-12  4.8469e-41  4.9959e-11  7.5212e-15  8.3662e-12  1.1141e-04  2.3564e-04  6.9068e-08  3.6333e-11  7.9914e-04  2.6293e-19  1.0273e-12  2.7954e-10
  2.4156e+00  2.6820e-09  1.8044e-10  1.9228e-08  2.5803e-09  1.3020e-18  1.2406e-12  5.6409e-41  5.5414e-11  8.3210e-15  9.2636e-12  1.1141e-04  2.3564e-04  6.8815e-08  3.6165e-11  7.9914e-04  2.6216e-19  1.0231e-12  3.0927e-10
  2.4362e+00  3.1273e-09  2.1540e-10  2.1797e-08  2.9634e-09  1.4989e-18  1.4154e-12  6.5392e-41  6.1399e-11  9.1966e-15  1.0247e-11  1.1141e-04  2.3564e-04  6.8537e-08  3.5983e-11  7.9914e-04  2.6133e-19  1.0188e-12  3.4182e-10
  2.4568e+00  3.6352e-09  2.5626e-10  2.4662e-08  3.3952e-09  1.7207e-18  1.6112e-12  7.5493e-41  6.7956e-11  1.0154e-14  1.1322e-11  1.1141e-04  2.3564e-04  6.8230e-08  3.5788e-11  7.9914e-04  2.6046e-19  1.0143e-12  3.7742e-10
  2.4774e+00  4.2124e-09  3.0378e-10  2.7848e-08  3.8806e-09  1.9695e-18  1.8302e-12  8.6782e-41  7.5130e-11  1.1200e-14  1.2497e-11  1.1141e-04  2.3564e-04  6.7894e-08  3.5579e-11  7.9914e-04  2.5953e-19  1.0097e-12  4.1629e-10
  2.4980e+00  4.8659e-09  3.5881e-10  3.1384e-08  4.4244e-09  2.2475e-18  2.0742e-12  9.9316e-41  8.2967e-11  1.2340e-14  1.3778e-11  1.1141e-04  2.3564e-04  6.7527e-08  3.5355e-11  7.9914e-04  2.5855e-19  1.0050e-12  4.5868e-10
  2.5186e+00  5.6030e-09  4.2221e-10  3.5299e-08  5.0320e-09  2.5569e-18  2.3455e-12  1.1314e-40  9.1516e-11  1.3582e-14  1.5174e-11  1.1141e-04  2.3564e-04  6.7127e-08  3.5115e-11  7.9914e-04  2.5752e-19  1.0001e-12  5.0485e-10
  2.5393e+00  6.4312e-09  4.9490e-10  3.9623e-08  5.7089e-09  2.8997e-18  2.6462e-12  1.2828e-40  1.0083e-10  1.4933e-14  1.6692e-11  1.1141e-04  2.3564e-04  6.6694e-08  3.4860e-11  7.9914e-04  2.5644e-19  9.9521e-13  5.5506e-10
  2.5599e+00  7.3584e-09  5.7782e-10  4.4389e-08  6.4605e-09  3.2779e-18  2.9788e-12  1.4474e-40  1.1096e-10  1.6399e-14  1.8341e-11  1.1141e-04  2.3564e-04  6.6226e-08  3.4589e-11  7.9914e-04  2.5530e-19  9.9022e-13  6.0959e-10
  2.5805e+00  8.3923e-09  6.7195e-10  4.9627e-08  7.2927e-09  3.6933e-18  3.3455e-12  1.6249e-40  1.2195e-10  1.7990e-14  2.0129e-11  1.1141e-04  2.3564e-04  6.5724e-08  3.4302e-11  7.9914e-04  2.5411e-19  9.8521e-13  6.6873e-10
  2.6011e+00  9.5411e-09  7.7825e-10  5.5372e-08  8.2114e-09  4.1474e-18  3.7488e-12  1.8149e-40  1.3388e-10  1.9712e-14  2.2065e-11  1.1141e-04  2.3564e-04  6.5185e-08  3.3998e-11  7.9914e-04  2.5288e-19  9.8020e-13  7.3276e-10
  2.6217e+00  1.0813e-08  8.9767e-10  6.1658e-08  9.2225e-09  4.6418e-18  4.1911e-12  2.0167e-40  1.4679e-10  2.1574e-14  2.4159e-11  1.1141e-04  2.3564e-04  6.4612e-08  3.3678e-11  7.9914e-04  2.5159e-19  9.7523e-13  8.0200e-10
  2.6423e+00  1.2216e-08  1.0312e-09  6.8518e-08  1.0332e-08  5.1773e-18  4.6750e-12  2.2291e-40  1.6074e-10  2.3584e-14  2.6419e-11  1.1141e-04  2.3563e-04  6.4003e-08  3.3342e-11  7.9914e-04  2.5027e-19  9.7033e-13  8.7675e-10
  2.6629e+00  1.3757e-08  1.1796e-09  7.5989e-08  1.1546e-08  5.7549e-18  5.2027e-12  2.4509e-40  1.7580e-10  2.5750e-14  2.8855e-11  1.1141e-04  2.3563e-04  6.3359e-08  3.2989e-11  7.9914e-04  2.4890e-19  9.6555e-13  9.5733e-10
  2.6835e+00  1.5446e-08  1.3439e-09  8.4105e-08  1.2870e-08  6.3750e-18  5.7770e-12  2.6804e-40  1.9202e-10  2.8082e-14  3.1476e-11  1.1141e-04  2.3563e-04  6.2681e-08  3.2620e-11  7.9914e-04  2.4749e-19  9.6092e-13  1.0441e-09
  2.7041e+00  1.7289e-08  1.5248e-09  9.2902e-08  1.4311e-08  7.0377e-18  6.4000e-12  2.9158e-40  2.0947e-10  3.0588e-14  3.4294e-11  1.1140e-04  2.3563e-04  6.1971e-08  3.2236e-11  7.9914e-04  2.4605e-19  9.5649e-13  1.1373e-09
  2.7247e+00  1.9293e-08  1.7230e-09  1.0241e-07  1.5873e-08  7.7427e-18  7.0744e-12  3.1550e-40  2.2821e-10  3.3276e-14  3.7316e-11  1.1140e-04  2.3563e-04  6.1231e-08  3.1838e-11  7.9914e-04  2.4457e-19  9.5230e-13  1.2373e-09
  2.7453e+00  2.1467e-08  1.9392e-09  1.1268e-07  1.7564e-08  8.4895e-18  7.8024e-12  3.3960e-40  2.4830e-10  3.6157e-14  4.0553e-11  1.1140e-04  2.3563e-04  6.0462e-08  3.1425e-11  7.9914e-04  2.4308e-19  9.4841e-13  1.3445e-09
  2.7659e+00  2.3816e-08  2.1741e-09  1.2373e-07  1.9388e-08  9.2771e-18  8.5864e-12  3.6365e-40  2.6981e-10  3.9238e-14  4.4016e-11  1.1140e-04  2.3563e-04  5.9666e-08  3.0998e-11  7.9914e-04  2.4156e-19  9.4484e-13  1.4592e-09
  2.7865e+00  2.6348e-08  2.4281e-09  1.3560e-07  2.1350e-08  1.0104e-17  9.4284e-12  3.8742e-40  2.9280e-10  4.2529e-14  4.7713e-11  1.1140e-04  2.3563e-04  5.8846e-08  3.0559e-11  7.9914e-04  2.4004e-19  9.4166e-13  1.5817e-09
  2.8071e+00  2.9069e-08  2.7016e-09  1.4832e-07  2.3457e-08  1.0970e-17  1.0331e-11  4.1071e-40  3.1733e-10  4.6038e-14  5.1656e-11  1.1140e-04  2.3562e-04  5.8005e-08  3.0109e-11  7.9914e-04  2.3850e-19  9.3889e-13  1.7124e-09
  2.8277e+00  3.1984e-08  2.9952e-09  1.6194e-07  2.5713e-08  1.1871e-17  1.1295e-11  4.3330e-40  3.4347e-10  4.9775e-14  5.5853e-11  1.1140e-04  2.3562e-04  5.7146e-08  2.9649e-11  7.9914e-04  2.3697e-19  9.3657e-13  1.8515e-09
  2.8483e+00  3.5100e-08  3.3091e-09  1.7647e-07  2.8123e-08  1.2808e-17  1.2324e-11  4.5501e-40  3.7127e-10  5.3747e-14  6.0314e-11  1.1140e-04  2.3562e-04  5.6272e-08  2.9179e-11  7.9914e-04  2.3543e-19  9.3475e-13  1.9995e-09
  2.8689e+00  3.8421e-08  3.6436e-09  1.9195e-07  3.0692e-08  1.3776e-17  1.3419e-11  4.7567e-40  4.0080e-10  5.7964e-14  6.5048e-11  1.1140e-04  2.3562e-04  5.5384e-08  2.8702e-11  7.9914e-04  2.3392e-19  9.3346e-13  2.1567e-09
  2.8895e+00  4.1953e-08  3.9992e-09  2.0841e-07  3.3424e-08  1.4776e-17  1.4582e-11  4.9514e-40  4.3211e-10  6.2434e-14  7.0066e-11  1.1140e-04  2.3562e-04  5.4488e-08  2.8218e-11  7.9914e-04  2.3241e-19  9.3271e-13  2.3233e-09
  2.9101e+00  4.5701e-08  4.3760e-09  2.2589e-07  3.6324e-08  1.5803e-17  1.5814e-11  5.1331e-40  4.6526e-10  6.7165e-14  7.5375e-11  1.1140e-04  2.3562e-04  5.3585e-08  2.7729e-11  7.9914e-04  2.3094e-19  9.3254e-13  2.4997e-09
  2.9307e+00  4.9670e-08  4.7742e-09  2.4440e-07  3.9396e-08  1.6856e-17  1.7117e-11  5.3009e-40  5.0030e-10  7.2164e-14  8.0985e-11  1.1140e-04  2.3562e-04  5.2678e-08  2.7236e-11  7.9914e-04  2.2949e-19  9.3295e-13  2.6863e-09
  2.9513e+00  5.3863e-08  5.1943e-09  2.6398e-07  4.2644e-08  1.7933e-17  1.8493e-11  5.4542e-40  5.3730e-10  7.7441e-14  8.6904e-11  1.1140e-04  2.3561e-04  5.1770e-08  2.6740e-11  7.9914e-04  2.2807e-19  9.3396e-13  2.8832e-09
  2.9719e+00  5.8285e-08  5.6365e-09  2.8464e-07  4.6071e-08  1.9033e-17  1.9942e-11  5.5927e-40  5.7629e-10  8.3000e-14  9.3140e-11  1.1140e-04  2.3561e-04  5.0863e-08  2.6243e-11  7.9914e-04  2.2670e-19  9.3558e-13  3.0909e-09
  2.9925e+00  6.2941e-08  6.1010e-09  3.0643e-07  4.9683e-08  2.0152e-17  2.1466e-11  5.7163e-40  6.1733e-10  8.8851e-14  9.9701e-11  1.1140e-04  2.3561e-04  4.9960e-08  2.5747e-11  7.9914e-04  2.2537e-19  9.3779e-13  3.3095e-09
  3.0131e+00  6.7835e-08  6.5882e-09  3.2935e-07  5.3481e-08  2.1289e-17  2.3067e-11  5.8250e-40  6.6047e-10  9.4998e-14  1.0659e-10  1.1140e-04  2.3561e-04  4.9062e-08  2.5251e-11  7.9914e-04  2.2409e-19  9.4060e-13  3.5394e-09
  3.0337e+00  7.2969e-08  7.0984e-09  3.5344e-07  5.7470e-08  2.2442e-17  2.4745e-11  5.9192e-40  7.0574e-10  1.0145e-13  1.1383e-10  1.1140e-04  2.3561e-04  4.8172e-08  2.4758e-11  7.9914e-04  2.2286e-19  9.4398e-13  3.7808e-09
  3.0543e+00  7.8348e-08  7.6320e-09  3.7870e-07  6.1652e-08  2.3610e-17  2.6500e-11  5.9992e-40  7.5319e-10  1.0821e-13  1.2140e-10  1.1140e-04  2.3561e-04  4.7290e-08  2.4269e-11  7.9914e-04  2.2169e-19  9.4793e-13  4.0340e-09
