#cols::logP,MgSiO3(s),Mg2SiO4(s),SiO2(s),MgO(s),FeO(s),FeS(s),Fe2O3(s),Fe(s),TiO2(s),Al2O3(s),Mg,SiO,H2O,Fe,H2S,TiO,Al,nuclei
  0.0000e+00  6.9060e-18  2.1065e-19  1.2549e-16  1.3948e-17  1.6031e-23  5.2642e-19  6.1479e-42  4.9775e-17  3.4844e-16  6.0562e-15  6.8382e-05  3.1750e-04  1.3356e-06  8.0904e-08  7.9930e-04  8.9074e-15  3.6830e-12  3.6331e-15
  2.0356e-02  9.9374e-18  3.0310e-19  1.8052e-16  2.0070e-17  2.3070e-23  7.5749e-19  8.8479e-42  7.1598e-17  5.0082e-16  8.7050e-15  6.8382e-05  3.1750e-04  1.3356e-06  8.0904e-08  7.9930e-04  8.9074e-15  3.6830e-12  5.2032e-15
  4.0711e-02  1.4363e-17  4.4720e-19  2.5626e-16  2.8448e-17  3.2684e-23  1.0739e-18  1.2792e-41  1.0203e-16  7.0980e-16  1.2338e-14  6.8382e-05  3.1750e-04  1.3356e-06  8.0904e-08  7.9930e-04  8.9074e-15  3.6830e-12  7.3703e-15
  6.1067e-02  2.0628e-17  6.5541e-19  3.6071e-16  4.0034e-17  4.5996e-23  1.5113e-18  1.8371e-41  1.4399e-16  9.9252e-16  1.7254e-14  6.8382e-05  3.1750e-04  1.3356e-06  8.0904e-08  7.9930e-04  8.9074e-15  3.6830e-12  1.0333e-14
  8.1423e-02  2.9402e-17  9.5338e-19  5.0371e-16  5.5915e-17  6.4245e-23  2.1107e-18  2.6187e-41  2.0123e-16  1.3701e-15  2.3819e-14  6.8382e-05  3.1750e-04  1.3356e-06  8.0904e-08  7.9930e-04  8.9074e-15  3.6830e-12  1.4348e-14
  1.0178e-01  4.1566e-17  1.3755e-18  6.9762e-16  7.7457e-17  8.9002e-23  2.9239e-18  3.7022e-41  2.7850e-16  1.8676e-15  3.2472e-14  6.8382e-05  3.1750e-04  1.3356e-06  8.0904e-08  7.9930e-04  8.9074e-15  3.6830e-12  1.9747e-14
  1.2213e-01  5.8251e-17  1.9672e-18  9.5784e-16  1.0637e-16  1.2223e-22  4.0151e-18  5.1884e-41  3.8169e-16  2.5146e-15  4.3723e-14  6.8382e-05  3.1750e-04  1.3356e-06  8.0904e-08  7.9930e-04  8.9074e-15  3.6829e-12  2.6948e-14
  1.4249e-01  8.0901e-17  2.7882e-18  1.3033e-15  1.4476e-16  1.6634e-22  5.4641e-18  7.2059e-41  5.1804e-16  3.3443e-15  5.8150e-14  6.8382e-05  3.1750e-04  1.3356e-06  8.0904e-08  7.9930e-04  8.9074e-15  3.6829e-12  3.6475e-14
  1.6285e-01  1.1133e-16  3.9157e-18  1.7573e-15  1.9521e-16  2.2432e-22  7.3683e-18  9.9168e-41  6.9635e-16  4.3941e-15  7.6401e-14  6.8382e-05  3.1750e-04  1.3356e-06  8.0904e-08  7.9930e-04  8.9074e-15  3.6829e-12  4.8982e-14
  1.8320e-01  1.5183e-16  5.4495e-18  2.3479e-15  2.6086e-16  2.9978e-22  9.8462e-18  1.3524e-40  9.2734e-16  5.7056e-15  9.9198e-14  6.8382e-05  3.1750e-04  1.3356e-06  8.0904e-08  7.9930e-04  8.9074e-15  3.6829e-12  6.5280e-14
  2.0356e-01  2.0521e-16  7.5168e-18  3.1091e-15  3.4550e-16  3.9707e-22  1.3041e-17  1.8281e-40  1.2239e-15  7.3249e-15  1.2734e-13  6.8382e-05  3.1750e-04  1.3356e-06  8.0904e-08  7.9930e-04  8.9073e-15  3.6829e-12  8.6366e-14
  2.2391e-01  2.7498e-16  1.0279e-17  4.0817e-15  4.5366e-16  5.2141e-22  1.7123e-17  2.4499e-40  1.6014e-15  9.3023e-15  1.6169e-13  6.8382e-05  3.1750e-04  1.3356e-06  8.0904e-08  7.9930e-04  8.9073e-15  3.6829e-12  1.1346e-13
  2.4427e-01  3.6540e-16  1.3939e-17  5.3141e-15  5.9072e-16  6.7898e-22  2.2297e-17  3.2558e-40  2.0782e-15  1.1692e-14  2.0320e-13  6.8382e-05  3.1750e-04  1.3356e-06  8.0904e-08  7.9930e-04  8.9073e-15  3.6828e-12  1.4804e-13
  2.6462e-01  4.8164e-16  1.8750e-17  6.8632e-15  7.6300e-16  8.7705e-22  2.8800e-17  4.2918e-40  2.6754e-15  1.4551e-14  2.5284e-13  6.8382e-05  3.1750e-04  1.3356e-06  8.0904e-08  7.9930e-04  8.9073e-15  3.6828e-12  1.9187e-13
  2.8498e-01  6.2994e-16  2.5026e-17  8.7956e-15  9.7790e-16  1.1241e-21  3.6912e-17  5.6137e-40  3.4178e-15  1.7937e-14  3.1160e-13  6.8382e-05  3.1750e-04  1.3356e-06  8.0904e-08  7.9930e-04  8.9073e-15  3.6827e-12  2.4708e-13
  3.0534e-01  8.1776e-16  3.3154e-17  1.1188e-14  1.2440e-15  1.4300e-21  4.6956e-17  7.2878e-40  4.3336e-15  2.1907e-14  3.8047e-13  6.8382e-05  3.1750e-04  1.3356e-06  8.0904e-08  7.9930e-04  8.9072e-15  3.6826e-12  3.1615e-13
  3.2569e-01  1.0539e-15  4.3605e-17  1.4129e-14  1.5710e-15  1.8060e-21  5.9302e-17  9.3928e-40  5.4552e-15  2.6515e-14  4.6035e-13  6.8382e-05  3.1750e-04  1.3356e-06  8.0904e-08  7.9930e-04  8.9072e-15  3.6825e-12  4.0202e-13
  3.4605e-01  1.3488e-15  5.6950e-17  1.7719e-14  1.9703e-15  2.2650e-21  7.4372e-17  1.2021e-39  6.8193e-15  3.1808e-14  5.5206e-13  6.8382e-05  3.1750e-04  1.3356e-06  8.0904e-08  7.9930e-04  8.9071e-15  3.6824e-12  5.0809e-13
  3.6640e-01  1.7147e-15  7.3880e-17  2.2072e-14  2.4544e-15  2.8216e-21  9.2644e-17  1.5282e-39  8.4670e-15  3.7826e-14  6.5625e-13  6.8382e-05  3.1750e-04  1.3356e-06  8.0904e-08  7.9930e-04  8.9070e-15  3.6822e-12  6.3828e-13
  3.8676e-01  2.1656e-15  9.5219e-17  2.7315e-14  3.0377e-15  3.4920e-21  1.1465e-16  1.9300e-39  1.0445e-14  4.4596e-14  7.7337e-13  6.8382e-05  3.1750e-04  1.3356e-06  8.0904e-08  7.9930e-04  8.9069e-15  3.6820e-12  7.9709e-13
  4.0711e-01  2.7179e-15  1.2195e-16  3.3592e-14  3.7359e-15  4.2946e-21  1.4100e-16  2.4221e-39  1.2805e-14  5.2135e-14  9.0367e-13  6.8382e-05  3.1750e-04  1.3356e-06  8.0904e-08  7.9930e-04  8.9068e-15  3.6817e-12  9.8963e-13
  4.2747e-01  3.3905e-15  1.5525e-16  4.1062e-14  4.5669e-15  5.2498e-21  1.7236e-16  3.0214e-39  1.5605e-14  6.0444e-14  1.0471e-12  6.8382e-05  3.1750e-04  1.3356e-06  8.0904e-08  7.9930e-04  8.9067e-15  3.6814e-12  1.2217e-12
  4.4783e-01  4.2050e-15  1.9650e-16  4.9903e-14  5.5505e-15  6.3802e-21  2.0947e-16  3.7471e-39  1.8910e-14  6.9507e-14  1.2033e-12  6.8382e-05  3.1750e-04  1.3356e-06  8.0904e-08  7.9930e-04  8.9065e-15  3.6811e-12  1.4996e-12
  4.6818e-01  5.1865e-15  2.4732e-16  6.0312e-14  6.7086e-15  7.7112e-21  2.5317e-16  4.6212e-39  2.2790e-14  7.9291e-14  1.3717e-12  6.8382e-05  3.1750e-04  1.3356e-06  8.0904e-08  7.9930e-04  8.9063e-15  3.6807e-12  1.8308e-12
  4.8854e-01  6.3631e-15  3.0965e-16  7.2508e-14  8.0655e-15  9.2704e-21  3.0435e-16  5.6691e-39  2.7325e-14  8.9747e-14  1.5513e-12  6.8382e-05  3.1750e-04  1.3356e-06  8.0904e-08  7.9930e-04  8.9060e-15  3.6802e-12  2.2230e-12
  5.0889e-01  7.7675e-15  3.8573e-16  8.6731e-14  9.6481e-15  1.1089e-20  3.6404e-16  6.9193e-39  3.2601e-14  1.0080e-13  1.7407e-12  6.8382e-05  3.1750e-04  1.3356e-06  8.0904e-08  7.9930e-04  8.9057e-15  3.6796e-12  2.6852e-12
  5.2925e-01  9.4363e-15  4.7820e-16  1.0325e-13  1.1486e-14  1.3200e-20  4.3335e-16  8.4047e-39  3.8714e-14  1.1237e-13  1.9384e-12  6.8382e-05  3.1750e-04  1.3356e-06  8.0904e-08  7.9930e-04  8.9053e-15  3.6789e-12  3.2268e-12
  5.4960e-01  1.1412e-14  5.9015e-16  1.2236e-13  1.3612e-14  1.5642e-20  5.1351e-16  1.0162e-38  4.5774e-14  1.2435e-13  2.1423e-12  6.8382e-05  3.1750e-04  1.3356e-06  8.0904e-08  7.9930e-04  8.9049e-15  3.6781e-12  3.8584e-12
  5.6996e-01  1.3742e-14  7.2520e-16  1.4438e-13  1.6063e-14  1.8456e-20  6.0589e-16  1.2235e-38  5.3903e-14  1.3661e-13  2.3502e-12  6.8382e-05  3.1750e-04  1.3356e-06  8.0904e-08  7.9930e-04  8.9044e-15  3.6772e-12  4.5912e-12
  5.9032e-01  1.6481e-14  8.8755e-16  1.6968e-13  1.8878e-14  2.1689e-20  7.1201e-16  1.4671e-38  6.3240e-14  1.4903e-13  2.5596e-12  6.8382e-05  3.1750e-04  1.3356e-06  8.0904e-08  7.9930e-04  8.9038e-15  3.6761e-12  5.4374e-12
  6.1067e-01  1.9691e-14  1.0821e-15  1.9866e-13  2.2103e-14  2.5392e-20  8.3354e-16  1.7525e-38  7.3941e-14  1.6146e-13  2.7679e-12  6.8382e-05  3.1750e-04  1.3356e-06  8.0904e-08  7.9930e-04  8.9031e-15  3.6749e-12  6.4102e-12
  6.3103e-01  2.3442e-14  1.3147e-15  2.3176e-13  2.5786e-14  2.9620e-20  9.7236e-16  2.0859e-38  8.6181e-14  1.7378e-13  2.9724e-12  6.8382e-05  3.1750e-04  1.3356e-06  8.0904e-08  7.9930e-04  8.9024e-15  3.6736e-12  7.5235e-12
  6.5138e-01  2.7816e-14  1.5919e-15  2.6948e-13  2.9984e-14  3.4439e-20  1.1305e-15  2.4746e-38  1.0016e-13  1.8583e-13  3.1705e-12  6.8382e-05  3.1750e-04  1.3356e-06  8.0904e-08  7.9930e-04  8.9015e-15  3.6721e-12  8.7922e-12
  6.7174e-01  3.2903e-14  1.9215e-15  3.1237e-13  3.4757e-14  3.9918e-20  1.3104e-15  2.9268e-38  1.1610e-13  1.9749e-13  3.3597e-12  6.8382e-05  3.1750e-04  1.3356e-06  8.0904e-08  7.9930e-04  8.9005e-15  3.6704e-12  1.0232e-11
  6.9209e-01  3.8809e-14  2.3128e-15  3.6104e-13  4.0174e-14  4.6135e-20  1.5144e-15  3.4516e-38  1.3424e-13  2.0866e-13  3.5376e-12  6.8382e-05  3.1750e-04  1.3356e-06  8.0904e-08  7.9930e-04  8.8994e-15  3.6685e-12  1.1860e-11
  7.1245e-01  4.5652e-14  2.7763e-15  4.1619e-13  4.6311e-14  5.3180e-20  1.7457e-15  4.0597e-38  1.5486e-13  2.1924e-13  3.7025e-12  6.8382e-05  3.1750e-04  1.3356e-06  8.0904e-08  7.9930e-04  8.8981e-15  3.6664e-12  1.3694e-11
  7.3281e-01  5.3569e-14  3.3244e-15  4.7857e-13  5.3254e-14  6.1148e-20  2.0072e-15  4.7631e-38  1.7826e-13  2.2918e-13  3.8529e-12  6.8382e-05  3.1750e-04  1.3356e-06  8.0904e-08  7.9930e-04  8.8967e-15  3.6641e-12  1.5751e-11
  7.5316e-01  6.2714e-14  3.9715e-15  5.4904e-13  6.1097e-14  7.0150e-20  2.3027e-15  5.5757e-38  2.0478e-13  2.3845e-13  3.9881e-12  6.8382e-05  3.1750e-04  1.3356e-06  8.0904e-08  7.9930e-04  8.8952e-15  3.6616e-12  1.8052e-11
  7.7352e-01  7.3264e-14  4.7344e-15  6.2854e-13  6.9945e-14  8.0307e-20  2.6361e-15  6.5131e-38  2.3479e-13  2.4706e-13  4.1076e-12  6.8382e-05  3.1750e-04  1.3356e-06  8.0904e-08  7.9930e-04  8.8935e-15  3.6588e-12  2.0617e-11
  7.9387e-01  8.5418e-14  5.6327e-15  7.1812e-13  7.9915e-14  9.1753e-20  3.0118e-15  7.5932e-38  2.6868e-13  2.5507e-13  4.2121e-12  6.8382e-05  3.1750e-04  1.3356e-06  8.0904e-08  7.9930e-04  8.8916e-15  3.6558e-12  2.3467e-11
  8.1423e-01  9.9402e-14  6.6889e-15  8.1895e-13  9.1136e-14  1.0464e-19  3.4347e-15  8.8361e-38  3.0690e-13  2.6256e-13  4.3025e-12  6.8382e-05  3.1750e-04  1.3356e-06  8.0904e-08  7.9930e-04  8.8895e-15  3.6526e-12  2.6624e-11
  8.3459e-01  1.1547e-13  7.9291e-15  9.3229e-13  1.0375e-13  1.1913e-19  3.9102e-15  1.0265e-37  3.4992e-13  2.6967e-13  4.3808e-12  6.8382e-05  3.1750e-04  1.3356e-06  8.0904e-08  7.9930e-04  8.8873e-15  3.6491e-12  3.0111e-11
  8.5494e-01  1.3392e-13  9.3837e-15  1.0595e-12  1.1792e-13  1.3540e-19  4.4443e-15  1.1906e-37  3.9823e-13  2.7657e-13  4.4494e-12  6.8382e-05  3.1750e-04  1.3356e-06  8.0904e-08  7.9930e-04  8.8849e-15  3.6453e-12  3.3952e-11
  8.7530e-01  1.5506e-13  1.1087e-14  1.2023e-12  1.3380e-13  1.5365e-19  5.0434e-15  1.3788e-37  4.5239e-13  2.8346e-13  4.5114e-12  6.8382e-05  3.1750e-04  1.3356e-06  8.0904e-08  7.9930e-04  8.8823e-15  3.6413e-12  3.8171e-11
  8.9565e-01  1.7927e-13  1.3080e-14  1.3621e-12  1.5159e-13  1.7410e-19  5.7146e-15  1.5944e-37  5.1298e-13  2.9059e-13  4.5704e-12  6.8382e-05  3.1750e-04  1.3356e-06  8.0904e-08  7.9930e-04  8.8795e-15  3.6370e-12  4.2795e-11
  9.1601e-01  2.0695e-13  1.5408e-14  1.5409e-12  1.7150e-13  1.9699e-19  6.4657e-15  1.8411e-37  5.8063e-13  2.9822e-13  4.6305e-12  6.8382e-05  3.1750e-04  1.3356e-06  8.0904e-08  7.9930e-04  8.8765e-15  3.6324e-12  4.7849e-11
  9.3636e-01  2.3855e-13  1.8124e-14  1.7407e-12  1.9373e-13  2.2256e-19  7.3049e-15  2.1230e-37  6.5599e-13  3.0663e-13  4.6962e-12  6.8382e-05  3.1750e-04  1.3356e-06  8.0904e-08  7.9930e-04  8.8733e-15  3.6276e-12  5.3362e-11
  9.5672e-01  2.7459e-13  2.1288e-14  1.9635e-12  2.1853e-13  2.5109e-19  8.2413e-15  2.4446e-37  7.3981e-13  3.1611e-13  4.7720e-12  6.8382e-05  3.1750e-04  1.3356e-06  8.0904e-08  7.9930e-04  8.8700e-15  3.6224e-12  5.9360e-11
  9.7708e-01  3.1561e-13  2.4969e-14  2.2117e-12  2.4616e-13  2.8288e-19  9.2845e-15  2.8110e-37  8.3286e-13  3.2695e-13  4.8626e-12  6.8382e-05  3.1750e-04  1.3356e-06  8.0904e-08  7.9930e-04  8.8664e-15  3.6170e-12  6.5873e-11
  9.9743e-01  3.6225e-13  2.9244e-14  2.4877e-12  2.7689e-13  3.1824e-19  1.0445e-14  3.2277e-37  9.3598e-13  3.3945e-13  4.9726e-12  6.8382e-05  3.1750e-04  1.3356e-06  8.0904e-08  7.9930e-04  8.8626e-15  3.6114e-12  7.2932e-11
  1.0178e+00  4.1519e-13  3.4202e-14  2.7941e-12  3.1101e-13  3.5751e-19  1.1733e-14  3.7006e-37  1.0501e-12  3.5389e-13  5.1063e-12  6.8382e-05  3.1750e-04  1.3356e-06  8.0904e-08  7.9930e-04  8.8586e-15  3.6054e-12  8.0566e-11
  1.0381e+00  4.7519e-13  3.9943e-14  3.1339e-12  3.4883e-13  4.0104e-19  1.3162e-14  4.2364e-37  1.1763e-12  3.7051e-13  5.2680e-12  6.8382e-05  3.1750e-04  1.3356e-06  8.0904e-08  7.9930e-04  8.8544e-15  3.5992e-12  8.8807e-11
  1.0585e+00  5.4307e-13  4.6581e-14  3.5100e-12  3.9070e-13  4.4922e-19  1.4743e-14  4.8426e-37  1.3155e-12  3.8957e-13  5.4614e-12  6.8382e-05  3.1750e-04  1.3356e-06  8.0904e-08  7.9930e-04  8.8499e-15  3.5927e-12  9.7687e-11
  1.0789e+00  6.1977e-13  5.4245e-14  3.9255e-12  4.3696e-13  5.0247e-19  1.6490e-14  5.5277e-37  1.4691e-12  4.1128e-13  5.6899e-12  6.8382e-05  3.1750e-04  1.3356e-06  8.0904e-08  7.9930e-04  8.8453e-15  3.5860e-12  1.0724e-10
  1.0992e+00  7.0627e-13  6.3078e-14  4.3840e-12  4.8801e-13  5.6121e-19  1.8418e-14  6.3010e-37  1.6383e-12  4.3583e-13  5.9564e-12  6.8382e-05  3.1750e-04  1.3356e-06  8.0904e-08  7.9930e-04  8.8405e-15  3.5790e-12  1.1750e-10
  1.1196e+00  8.0369e-13  7.3243e-14  4.8889e-12  5.4423e-13  6.2591e-19  2.0540e-14  7.1726e-37  1.8245e-12  4.6337e-13  6.2634e-12  6.8382e-05  3.1750e-04  1.3356e-06  8.0904e-08  7.9930e-04  8.8354e-15  3.5717e-12  1.2849e-10
  1.1399e+00  9.1323e-13  8.4924e-14  5.4441e-12  6.0605e-13  6.9705e-19  2.2874e-14  8.1537e-37  2.0292e-12  4.9406e-13  6.6130e-12  6.8382e-05  3.1750e-04  1.3356e-06  8.0904e-08  7.9930e-04  8.8301e-15  3.5642e-12  1.4026e-10
  1.1603e+00  1.0362e-12  9.8325e-14  6.0537e-12  6.7392e-13  7.7514e-19  2.5437e-14  9.2529e-37  2.2541e-12  5.2800e-13  7.0068e-12  6.8382e-05  3.1750e-04  1.3356e-06  8.0904e-08  7.9930e-04  8.8246e-15  3.5564e-12  1.5284e-10
  1.1806e+00  1.1740e-12  1.1367e-13  6.7218e-12  7.4831e-13  8.6072e-19  2.8245e-14  1.0478e-36  2.5008e-12  5.6529e-13  7.4463e-12  6.8382e-05  3.1750e-04  1.3356e-06  8.0904e-08  7.9930e-04  8.8188e-15  3.5484e-12  1.6625e-10
  1.2010e+00  1.3283e-12  1.3123e-13  7.4529e-12  8.2973e-13  9.5438e-19  3.1317e-14  1.1847e-36  2.7711e-12  6.0602e-13  7.9324e-12  6.8382e-05  3.1750e-04  1.3356e-06  8.0904e-08  7.9930e-04  8.8128e-15  3.5401e-12  1.8055e-10
  1.2213e+00  1.5007e-12  1.5129e-13  8.2520e-12  9.1871e-13  1.0567e-18  3.4675e-14  1.3374e-36  3.0669e-12  6.5026e-13  8.4661e-12  6.8382e-05  3.1750e-04  1.3356e-06  8.0904e-08  7.9930e-04  8.8065e-15  3.5316e-12  1.9576e-10
  1.2417e+00  1.6931e-12  1.7416e-13  9.1243e-12  1.0158e-12  1.1684e-18  3.8339e-14  1.5081e-36  3.3901e-12  6.9807e-13  9.0482e-12  6.8382e-05  3.1750e-04  1.3356e-06  8.0904e-08  7.9930e-04  8.8000e-15  3.5228e-12  2.1191e-10
  1.2621e+00  1.9079e-12  2.0026e-13  1.0077e-11  1.1219e-12  1.2904e-18  4.2340e-14  1.6989e-36  3.7427e-12  7.4951e-13  9.6792e-12  6.8382e-05  3.1750e-04  1.3356e-06  8.0904e-08  7.9930e-04  8.7931e-15  3.5138e-12  2.2904e-10
  1.2824e+00  2.1471e-12  2.2996e-13  1.1113e-11  1.2374e-12  1.4231e-18  4.6696e-14  1.9114e-36  4.1268e-12  8.0446e-13  1.0350e-11  6.8382e-05  3.1750e-04  1.3356e-06  8.0904e-08  7.9930e-04  8.7859e-15  3.5045e-12  2.4718e-10
  1.3028e+00  2.4128e-12  2.6368e-13  1.2239e-11  1.3628e-12  1.5673e-18  5.1426e-14  2.1475e-36  4.5442e-12  8.6295e-13  1.1058e-11  6.8382e-05  3.1750e-04  1.3356e-06  8.0903e-08  7.9930e-04  8.7784e-15  3.4949e-12  2.6638e-10
  1.3231e+00  2.7077e-12  3.0194e-13  1.3461e-11  1.4988e-12  1.7238e-18  5.6558e-14  2.4101e-36  4.9974e-12  9.2509e-13  1.1805e-11  6.8382e-05  3.1750e-04  1.3356e-06  8.0903e-08  7.9930e-04  8.7705e-15  3.4851e-12  2.8666e-10
  1.3435e+00  3.0344e-12  3.4526e-13  1.4784e-11  1.6462e-12  1.8932e-18  6.2115e-14  2.7011e-36  5.4886e-12  9.9090e-13  1.2589e-11  6.8382e-05  3.1750e-04  1.3356e-06  8.0903e-08  7.9930e-04  8.7623e-15  3.4749e-12  3.0805e-10
  1.3638e+00  3.3957e-12  3.9424e-13  1.6214e-11  1.8055e-12  2.0763e-18  6.8125e-14  3.0233e-36  6.0202e-12  1.0605e-12  1.3410e-11  6.8382e-05  3.1750e-04  1.3356e-06  8.0903e-08  7.9930e-04  8.7536e-15  3.4644e-12  3.3058e-10
  1.3842e+00  3.7951e-12  4.4958e-13  1.7760e-11  1.9777e-12  2.2742e-18  7.4616e-14  3.3794e-36  6.5948e-12  1.1340e-12  1.4274e-11  6.8382e-05  3.1750e-04  1.3356e-06  8.0903e-08  7.9930e-04  8.7445e-15  3.4536e-12  3.5429e-10
  1.4045e+00  4.2359e-12  5.1201e-13  1.9427e-11  2.1634e-12  2.4878e-18  8.1622e-14  3.7728e-36  7.2151e-12  1.2114e-12  1.5183e-11  6.8382e-05  3.1750e-04  1.3356e-06  8.0903e-08  7.9930e-04  8.7350e-15  3.4425e-12  3.7919e-10
  1.4249e+00  4.7220e-12  5.8239e-13  2.1225e-11  2.3637e-12  2.7180e-18  8.9176e-14  4.2067e-36  7.8839e-12  1.2929e-12  1.6138e-11  6.8382e-05  3.1750e-04  1.3356e-06  8.0903e-08  7.9930e-04  8.7249e-15  3.4309e-12  4.0532e-10
  1.4453e+00  5.2576e-12  6.6163e-13  2.3161e-11  2.5794e-12  2.9660e-18  9.7311e-14  4.6848e-36  8.6038e-12  1.3785e-12  1.7144e-11  6.8382e-05  3.1750e-04  1.3356e-06  8.0902e-08  7.9930e-04  8.7143e-15  3.4190e-12  4.3270e-10
  1.4656e+00  5.8469e-12  7.5076e-13  2.5244e-11  2.8114e-12  3.2329e-18  1.0607e-13  5.2119e-36  9.3781e-12  1.4683e-12  1.8202e-11  6.8382e-05  3.1750e-04  1.3356e-06  8.0902e-08  7.9930e-04  8.7032e-15  3.4068e-12  4.6136e-10
  1.4860e+00  6.4948e-12  8.5090e-13  2.7483e-11  3.0608e-12  3.5197e-18  1.1547e-13  5.7955e-36  1.0210e-11  1.5624e-12  1.9314e-11  6.8382e-05  3.1750e-04  1.3356e-06  8.0902e-08  7.9930e-04  8.6915e-15  3.3941e-12  4.9131e-10
  1.5063e+00  7.2062e-12  9.6330e-13  2.9886e-11  3.3285e-12  3.8277e-18  1.2558e-13  6.4314e-36  1.1101e-11  1.6608e-12  2.0481e-11  6.8382e-05  3.1750e-04  1.3356e-06  8.0902e-08  7.9930e-04  8.6791e-15  3.3811e-12  5.2259e-10
  1.5267e+00  7.9869e-12  1.0894e-12  3.2465e-11  3.6157e-12  4.1581e-18  1.3642e-13  7.1293e-36  1.2057e-11  1.7635e-12  2.1706e-11  6.8382e-05  3.1750e-04  1.3356e-06  8.0901e-08  7.9930e-04  8.6661e-15  3.3676e-12  5.5521e-10
  1.5470e+00  8.8437e-12  1.2307e-12  3.5231e-11  3.9240e-12  4.5128e-18  1.4805e-13  7.8949e-36  1.3078e-11  1.8706e-12  2.2988e-11  6.8382e-05  3.1750e-04  1.3356e-06  8.0901e-08  7.9930e-04  8.6524e-15  3.3538e-12  5.8918e-10
  1.5674e+00  9.7823e-12  1.3890e-12  3.8194e-11  4.2542e-12  4.8927e-18  1.6051e-13  8.7336e-36  1.4167e-11  1.9821e-12  2.4321e-11  6.8382e-05  3.1750e-04  1.3356e-06  8.0901e-08  7.9930e-04  8.6379e-15  3.3395e-12  6.2454e-10
  1.5877e+00  1.0809e-11  1.5660e-12  4.1364e-11  4.6074e-12  5.2991e-18  1.7384e-13  9.6515e-36  1.5325e-11  2.0981e-12  2.5701e-11  6.8382e-05  3.1750e-04  1.3356e-06  8.0901e-08  7.9930e-04  8.6226e-15  3.3248e-12  6.6130e-10
  1.6081e+00  1.1931e-11  1.7637e-12  4.4751e-11  4.9847e-12  5.7334e-18  1.8808e-13  1.0654e-35  1.6552e-11  2.2186e-12  2.7129e-11  6.8382e-05  3.1750e-04  1.3356e-06  8.0900e-08  7.9930e-04  8.6065e-15  3.3097e-12  6.9946e-10
  1.6285e+00  1.3157e-11  1.9843e-12  4.8368e-11  5.3876e-12  6.1973e-18  2.0329e-13  1.1750e-35  1.7847e-11  2.3436e-12  2.8608e-11  6.8382e-05  3.1750e-04  1.3356e-06  8.0900e-08  7.9930e-04  8.5896e-15  3.2940e-12  7.3905e-10
  1.6488e+00  1.4498e-11  2.2309e-12  5.2235e-11  5.8187e-12  6.6936e-18  2.1956e-13  1.2948e-35  1.9206e-11  2.4731e-12  3.0139e-11  6.8382e-05  3.1750e-04  1.3356e-06  8.0900e-08  7.9930e-04  8.5717e-15  3.2779e-12  7.8007e-10
  1.6692e+00  1.5960e-11  2.5058e-12  5.6361e-11  6.2786e-12  7.2233e-18  2.3692e-13  1.4256e-35  2.0630e-11  2.6073e-12  3.1711e-11  6.8382e-05  3.1750e-04  1.3356e-06  8.0899e-08  7.9930e-04  8.5528e-15  3.2612e-12  8.2254e-10
  1.6895e+00  1.7554e-11  2.8118e-12  6.0756e-11  6.7684e-12  7.7872e-18  2.5542e-13  1.5681e-35  2.2126e-11  2.7460e-12  3.3323e-11  6.8382e-05  3.1750e-04  1.3356e-06  8.0899e-08  7.9930e-04  8.5330e-15  3.2441e-12  8.6647e-10
  1.7099e+00  1.9288e-11  3.1523e-12  6.5431e-11  7.2895e-12  8.3870e-18  2.7509e-13  1.7231e-35  2.3706e-11  2.8893e-12  3.4978e-11  6.8382e-05  3.1750e-04  1.3356e-06  8.0898e-08  7.9930e-04  8.5121e-15  3.2263e-12  9.1185e-10
  1.7302e+00  2.1173e-11  3.5306e-12  7.0401e-11  7.8434e-12  9.0245e-18  2.9600e-13  1.8918e-35  2.5384e-11  3.0373e-12  3.6680e-11  6.8382e-05  3.1750e-04  1.3356e-06  8.0898e-08  7.9930e-04  8.4901e-15  3.2080e-12  9.5871e-10
