#cols::logP,MgSiO3(s),Mg2SiO4(s),SiO2(s),Mg,SiO,H2O,Fe,H2S,TiO,Al,nuclei
  1.7747e-01  2.4317e-14  6.9935e-15  3.9099e-14  1.4392e-04  2.1322e-06  1.8110e-06  1.0000e-03  8.0000e-04  1.0000e-05  7.0000e-05  2.5330e-12
  1.9334e-01  2.8672e-14  8.2461e-15  4.6102e-14  1.4392e-04  2.1322e-06  1.8110e-06  1.0000e-03  8.0000e-04  1.0000e-05  7.0000e-05  2.9867e-12
  2.0922e-01  3.4577e-14  1.0142e-14  5.4781e-14  1.4392e-04  2.1322e-06  1.8110e-06  1.0000e-03  8.0000e-04  1.0000e-05  7.0000e-05  3.5126e-12
  2.2510e-01  4.1829e-14  1.2482e-14  6.5186e-14  1.4392e-04  2.1322e-06  1.8110e-06  1.0000e-03  8.0000e-04  1.0000e-05  7.0000e-05  4.1208e-12
  2.4098e-01  5.0546e-14  1.5329e-14  7.7493e-14  1.4392e-04  2.1322e-06  1.8110e-06  1.0000e-03  8.0000e-04  1.0000e-05  7.0000e-05  4.8227e-12
  2.5686e-01  6.0954e-14  1.8782e-14  9.1957e-14  1.4392e-04  2.1322e-06  1.8110e-06  1.0000e-03  8.0000e-04  1.0000e-05  7.0000e-05  5.6307e-12
  2.7274e-01  7.3342e-14  2.2960e-14  1.0889e-13  1.4392e-04  2.1322e-06  1.8110e-06  1.0000e-03  8.0000e-04  1.0000e-05  7.0000e-05  6.5590e-12
  2.8862e-01  8.8051e-14  2.8005e-14  1.2867e-13  1.4392e-04  2.1322e-06  1.8110e-06  1.0000e-03  8.0000e-04  1.0000e-05  7.0000e-05  7.6231e-12
  3.0450e-01  1.0548e-13  3.4084e-14  1.5170e-13  1.4392e-04  2.1322e-06  1.8110e-06  1.0000e-03  8.0000e-04  1.0000e-05  7.0000e-05  8.8401e-12
  3.2038e-01  1.2608e-13  4.1392e-14  1.7848e-13  1.4392e-04  2.1322e-06  1.8110e-06  1.0000e-03  8.0000e-04  1.0000e-05  7.0000e-05  1.0229e-11
  3.3626e-01  1.5039e-13  5.0160e-14  2.0954e-13  1.4392e-04  2.1322e-06  1.8110e-06  1.0000e-03  8.0000e-04  1.0000e-05  7.0000e-05  1.1811e-11
  3.5214e-01  1.7901e-13  6.0660e-14  2.4549e-13  1.4392e-04  2.1322e-06  1.8110e-06  1.0000e-03  8.0000e-04  1.0000e-05  7.0000e-05  1.3608e-11
  3.6802e-01  2.1265e-13  7.3207e-14  2.8702e-13  1.4392e-04  2.1322e-06  1.8110e-06  1.0000e-03  8.0000e-04  1.0000e-05  7.0000e-05  1.5647e-11
  3.8390e-01  2.5210e-13  8.8173e-14  3.3491e-13  1.4392e-04  2.1322e-06  1.8110e-06  1.0000e-03  8.0000e-04  1.0000e-05  7.0000e-05  1.7955e-11
  3.9978e-01  2.9827e-13  1.0599e-13  3.9002e-13  1.4392e-04  2.1322e-06  1.8110e-06  1.0000e-03  8.0000e-04  1.0000e-05  7.0000e-05  2.0561e-11
  4.1566e-01  3.5222e-13  1.2715e-13  4.5331e-13  1.4392e-04  2.1322e-06  1.8110e-06  1.0000e-03  8.0000e-04  1.0000e-05  7.0000e-05  2.3500e-11
  4.3154e-01  4.1513e-13  1.5226e-13  5.2586e-13  1.4392e-04  2.1322e-06  1.8110e-06  1.0000e-03  8.0000e-04  1.0000e-05  7.0000e-05  2.6806e-11
  4.4741e-01  4.8835e-13  1.8197e-13  6.0889e-13  1.4392e-04  2.1322e-06  1.8110e-06  1.0000e-03  8.0000e-04  1.0000e-05  7.0000e-05  3.0519e-11
  4.6329e-01  5.7343e-13  2.1708e-13  7.0371e-13  1.4392e-04  2.1322e-06  1.8110e-06  1.0000e-03  8.0000e-04  1.0000e-05  7.0000e-05  3.4680e-11
  4.7917e-01  6.7210e-13  2.5849e-13  8.1183e-13  1.4392e-04  2.1322e-06  1.8110e-06  1.0000e-03  8.0000e-04  1.0000e-05  7.0000e-05  3.9336e-11
  4.9505e-01  7.8635e-13  3.0726e-13  9.3488e-13  1.4392e-04  2.1322e-06  1.8110e-06  1.0000e-03  8.0000e-04  1.0000e-05  7.0000e-05  4.4536e-11
  5.1093e-01  9.1839e-13  3.6457e-13  1.0747e-12  1.4392e-04  2.1322e-06  1.8110e-06  1.0000e-03  8.0000e-04  1.0000e-05  7.0000e-05  5.0332e-11
  5.2681e-01  1.0707e-12  4.3183e-13  1.2332e-12  1.4392e-04  2.1322e-06  1.8110e-06  1.0000e-03  8.0000e-04  1.0000e-05  7.0000e-05  5.6782e-11
  5.4269e-01  1.2462e-12  5.1063e-13  1.4128e-12  1.4392e-04  2.1322e-06  1.8110e-06  1.0000e-03  8.0000e-04  1.0000e-05  7.0000e-05  6.3946e-11
  5.5857e-01  1.4481e-12  6.0279e-13  1.6158e-12  1.4392e-04  2.1322e-06  1.8110e-06  1.0000e-03  8.0000e-04  1.0000e-05  7.0000e-05  7.1890e-11
  5.7445e-01  1.6798e-12  7.1041e-13  1.8449e-12  1.4392e-04  2.1322e-06  1.8110e-06  1.0000e-03  8.0000e-04  1.0000e-05  7.0000e-05  8.0684e-11
  5.9033e-01  1.9455e-12  8.3589e-13  2.1031e-12  1.4392e-04  2.1322e-06  1.8110e-06  1.0000e-03  8.0000e-04  1.0000e-05  7.0000e-05  9.0403e-11
  6.0621e-01  2.2496e-12  9.8195e-13  2.3935e-12  1.4392e-04  2.1322e-06  1.8110e-06  1.0000e-03  8.0000e-04  1.0000e-05  7.0000e-05  1.0113e-10
  6.2209e-01  2.5971e-12  1.1517e-12  2.7199e-12  1.4392e-04  2.1322e-06  1.8110e-06  1.0000e-03  8.0000e-04  1.0000e-05  7.0000e-05  1.1294e-10
  6.3797e-01  2.9937e-12  1.3488e-12  3.0859e-12  1.4392e-04  2.1322e-06  1.8110e-06  1.0000e-03  8.0000e-04  1.0000e-05  7.0000e-05  1.2593e-10
  6.5385e-01  3.4456e-12  1.5771e-12  3.4959e-12  1.4392e-04  2.1322e-06  1.8110e-06  1.0000e-03  8.0000e-04  1.0000e-05  7.0000e-05  1.4019e-10
  6.6973e-01  3.9598e-12  1.8414e-12  3.9545e-12  1.4392e-04  2.1322e-06  1.8110e-06  1.0000e-03  8.0000e-04  1.0000e-05  7.0000e-05  1.5583e-10
  6.8560e-01  4.5441e-12  2.1468e-12  4.4667e-12  1.4392e-04  2.1322e-06  1.8110e-06  1.0000e-03  8.0000e-04  1.0000e-05  7.0000e-05  1.7294e-10
  7.0148e-01  5.2072e-12  2.4993e-12  5.0380e-12  1.4392e-04  2.1322e-06  1.8110e-06  1.0000e-03  8.0000e-04  1.0000e-05  7.0000e-05  1.9165e-10
  7.1736e-01  5.9585e-12  2.9055e-12  5.6743e-12  1.4392e-04  2.1322e-06  1.8110e-06  1.0000e-03  8.0000e-04  1.0000e-05  7.0000e-05  2.1207e-10
  7.3324e-01  6.8087e-12  3.3730e-12  6.3821e-12  1.4392e-04  2.1322e-06  1.8110e-06  1.0000e-03  8.0000e-04  1.0000e-05  7.0000e-05  2.3432e-10
  7.4912e-01  7.7697e-12  3.9104e-12  7.1684e-12  1.4392e-04  2.1322e-06  1.8110e-06  1.0000e-03  8.0000e-04  1.0000e-05  7.0000e-05  2.5854e-10
  7.6500e-01  8.8544e-12  4.5274e-12  8.0408e-12  1.4392e-04  2.1322e-06  1.8110e-06  1.0000e-03  8.0000e-04  1.0000e-05  7.0000e-05  2.8485e-10
  7.8088e-01  1.0077e-11  5.2348e-12  9.0076e-12  1.4392e-04  2.1322e-06  1.8110e-06  1.0000e-03  8.0000e-04  1.0000e-05  7.0000e-05  3.1341e-10
  7.9676e-01  1.1454e-11  6.0449e-12  1.0078e-11  1.4392e-04  2.1322e-06  1.8110e-06  1.0000e-03  8.0000e-04  1.0000e-05  7.0000e-05  3.4436e-10
  8.1264e-01  1.3003e-11  6.9716e-12  1.1260e-11  1.4392e-04  2.1322e-06  1.8110e-06  1.0000e-03  8.0000e-04  1.0000e-05  7.0000e-05  3.7785e-10
  8.2852e-01  1.4743e-11  8.0304e-12  1.2567e-11  1.4392e-04  2.1322e-06  1.8110e-06  1.0000e-03  8.0000e-04  1.0000e-05  7.0000e-05  4.1406e-10
  8.4440e-01  1.6695e-11  9.2387e-12  1.4007e-11  1.4392e-04  2.1321e-06  1.8110e-06  1.0000e-03  8.0000e-04  1.0000e-05  7.0000e-05  4.5313e-10
  8.6028e-01  1.8883e-11  1.0616e-11  1.5594e-11  1.4392e-04  2.1321e-06  1.8110e-06  1.0000e-03  8.0000e-04  1.0000e-05  7.0000e-05  4.9526e-10
  8.7616e-01  2.1334e-11  1.2185e-11  1.7341e-11  1.4392e-04  2.1321e-06  1.8110e-06  1.0000e-03  8.0000e-04  1.0000e-05  7.0000e-05  5.4062e-10
  8.9204e-01  2.4074e-11  1.3969e-11  1.9261e-11  1.4392e-04  2.1321e-06  1.8110e-06  1.0000e-03  8.0000e-04  1.0000e-05  7.0000e-05  5.8940e-10
  9.0792e-01  2.7137e-11  1.5997e-11  2.1371e-11  1.4392e-04  2.1321e-06  1.8110e-06  1.0000e-03  8.0000e-04  1.0000e-05  7.0000e-05  6.4179e-10
  9.2380e-01  3.0555e-11  1.8299e-11  2.3685e-11  1.4392e-04  2.1321e-06  1.8110e-06  1.0000e-03  8.0000e-04  1.0000e-05  7.0000e-05  6.9800e-10
  9.3967e-01  3.4368e-11  2.0910e-11  2.6222e-11  1.4392e-04  2.1321e-06  1.8110e-06  1.0000e-03  8.0000e-04  1.0000e-05  7.0000e-05  7.5823e-10
  9.5555e-01  3.8616e-11  2.3869e-11  2.9001e-11  1.4392e-04  2.1321e-06  1.8110e-06  1.0000e-03  8.0000e-04  1.0000e-05  7.0000e-05  8.2270e-10
  9.7143e-01  4.3345e-11  2.7219e-11  3.2041e-11  1.4392e-04  2.1321e-06  1.8110e-06  1.0000e-03  8.0000e-04  1.0000e-05  7.0000e-05  8.9162e-10
  9.8731e-01  4.8604e-11  3.1008e-11  3.5365e-11  1.4392e-04  2.1321e-06  1.8110e-06  1.0000e-03  8.0000e-04  1.0000e-05  7.0000e-05  9.6522e-10
  1.0032e+00  5.4450e-11  3.5291e-11  3.8997e-11  1.4392e-04  2.1321e-06  1.8110e-06  1.0000e-03  8.0000e-04  1.0000e-05  7.0000e-05  1.0437e-09
  1.0191e+00  6.0941e-11  4.0127e-11  4.2960e-11  1.4392e-04  2.1321e-06  1.8109e-06  1.0000e-03  8.0000e-04  1.0000e-05  7.0000e-05  1.1274e-09
  1.0350e+00  6.8143e-11  4.5584e-11  4.7284e-11  1.4392e-04  2.1321e-06  1.8109e-06  1.0000e-03  8.0000e-04  1.0000e-05  7.0000e-05  1.2165e-09
  1.0508e+00  7.6129e-11  5.1737e-11  5.1996e-11  1.4392e-04  2.1321e-06  1.8109e-06  1.0000e-03  8.0000e-04  1.0000e-05  7.0000e-05  1.3112e-09
  1.0667e+00  8.4978e-11  5.8670e-11  5.7129e-11  1.4392e-04  2.1321e-06  1.8109e-06  1.0000e-03  8.0000e-04  1.0000e-05  7.0000e-05  1.4119e-09
  1.0826e+00  9.4776e-11  6.6477e-11  6.2715e-11  1.4392e-04  2.1321e-06  1.8109e-06  1.0000e-03  8.0000e-04  1.0000e-05  7.0000e-05  1.5187e-09
  1.0985e+00  1.0562e-10  7.5261e-11  6.8793e-11  1.4392e-04  2.1321e-06  1.8109e-06  1.0000e-03  8.0000e-04  1.0000e-05  7.0000e-05  1.6320e-09
  1.1143e+00  1.1761e-10  8.5140e-11  7.5401e-11  1.4392e-04  2.1321e-06  1.8109e-06  1.0000e-03  8.0000e-04  1.0000e-05  7.0000e-05  1.7520e-09
  1.1302e+00  1.3086e-10  9.6243e-11  8.2581e-11  1.4392e-04  2.1321e-06  1.8109e-06  1.0000e-03  8.0000e-04  1.0000e-05  7.0000e-05  1.8790e-09
  1.1461e+00  1.4550e-10  1.0871e-10  9.0379e-11  1.4392e-04  2.1321e-06  1.8109e-06  1.0000e-03  8.0000e-04  1.0000e-05  7.0000e-05  2.0133e-09
  1.1620e+00  1.6167e-10  1.2272e-10  9.8845e-11  1.4392e-04  2.1321e-06  1.8109e-06  1.0000e-03  8.0000e-04  1.0000e-05  7.0000e-05  2.1552e-09
  1.1779e+00  1.7951e-10  1.3843e-10  1.0803e-10  1.4392e-04  2.1321e-06  1.8109e-06  1.0000e-03  8.0000e-04  1.0000e-05  7.0000e-05  2.3049e-09
  1.1937e+00  1.9920e-10  1.5606e-10  1.1800e-10  1.4392e-04  2.1321e-06  1.8109e-06  1.0000e-03  8.0000e-04  1.0000e-05  7.0000e-05  2.4629e-09
  1.2096e+00  2.2092e-10  1.7583e-10  1.2881e-10  1.4392e-04  2.1321e-06  1.8109e-06  1.0000e-03  8.0000e-04  1.0000e-05  7.0000e-05  2.6294e-09
  1.2255e+00  2.4486e-10  1.9798e-10  1.4052e-10  1.4392e-04  2.1321e-06  1.8109e-06  1.0000e-03  8.0000e-04  1.0000e-05  7.0000e-05  2.8048e-09
  1.2414e+00  2.7125e-10  2.2281e-10  1.5323e-10  1.4392e-04  2.1321e-06  1.8109e-06  1.0000e-03  8.0000e-04  1.0000e-05  7.0000e-05  2.9893e-09
  1.2573e+00  3.0033e-10  2.5063e-10  1.6699e-10  1.4392e-04  2.1320e-06  1.8109e-06  1.0000e-03  8.0000e-04  1.0000e-05  7.0000e-05  3.1833e-09
  1.2731e+00  3.3238e-10  2.8179e-10  1.8191e-10  1.4392e-04  2.1320e-06  1.8109e-06  1.0000e-03  8.0000e-04  1.0000e-05  7.0000e-05  3.3872e-09
  1.2890e+00  3.6770e-10  3.1669e-10  1.9807e-10  1.4392e-04  2.1320e-06  1.8108e-06  1.0000e-03  8.0000e-04  1.0000e-05  7.0000e-05  3.6012e-09
  1.3049e+00  4.0660e-10  3.5578e-10  2.1559e-10  1.4392e-04  2.1320e-06  1.8108e-06  1.0000e-03  8.0000e-04  1.0000e-05  7.0000e-05  3.8258e-09
  1.3208e+00  4.4947e-10  3.9955e-10  2.3457e-10  1.4392e-04  2.1320e-06  1.8108e-06  1.0000e-03  8.0000e-04  1.0000e-05  7.0000e-05  4.0614e-09
  1.3367e+00  4.9671e-10  4.4856e-10  2.5515e-10  1.4392e-04  2.1320e-06  1.8108e-06  1.0000e-03  8.0000e-04  1.0000e-05  7.0000e-05  4.3083e-09
  1.3525e+00  5.4877e-10  5.0347e-10  2.7746e-10  1.4392e-04  2.1319e-06  1.8108e-06  1.0000e-03  8.0000e-04  1.0000e-05  7.0000e-05  4.5668e-09
  1.3684e+00  6.0616e-10  5.6497e-10  3.0165e-10  1.4392e-04  2.1319e-06  1.8108e-06  1.0000e-03  8.0000e-04  1.0000e-05  7.0000e-05  4.8375e-09
  1.3843e+00  6.6944e-10  6.3389e-10  3.2790e-10  1.4392e-04  2.1319e-06  1.8107e-06  1.0000e-03  8.0000e-04  1.0000e-05  7.0000e-05  5.1206e-09
  1.4002e+00  7.3925e-10  7.1114e-10  3.5639e-10  1.4392e-04  2.1318e-06  1.8107e-06  1.0000e-03  8.0000e-04  1.0000e-05  7.0000e-05  5.4167e-09
  1.4161e+00  8.1631e-10  7.9778e-10  3.8734e-10  1.4392e-04  2.1318e-06  1.8107e-06  1.0000e-03  8.0000e-04  1.0000e-05  7.0000e-05  5.7262e-09
  1.4319e+00  9.0141e-10  8.9498e-10  4.2097e-10  1.4392e-04  2.1318e-06  1.8106e-06  1.0000e-03  8.0000e-04  1.0000e-05  7.0000e-05  6.0496e-09
  1.4478e+00  9.9547e-10  1.0041e-09  4.5756e-10  1.4392e-04  2.1317e-06  1.8106e-06  1.0000e-03  8.0000e-04  1.0000e-05  7.0000e-05  6.3872e-09
  1.4637e+00  1.0995e-09  1.1267e-09  4.9739e-10  1.4392e-04  2.1317e-06  1.8105e-06  1.0000e-03  8.0000e-04  1.0000e-05  7.0000e-05  6.7397e-09
  1.4796e+00  1.2147e-09  1.2646e-09  5.4081e-10  1.4392e-04  2.1316e-06  1.8105e-06  1.0000e-03  8.0000e-04  1.0000e-05  7.0000e-05  7.1075e-09
  1.4955e+00  1.3424e-09  1.4198e-09  5.8819e-10  1.4392e-04  2.1315e-06  1.8104e-06  1.0000e-03  8.0000e-04  1.0000e-05  7.0000e-05  7.4912e-09
  1.5113e+00  1.4842e-09  1.5948e-09  6.3998e-10  1.4392e-04  2.1315e-06  1.8103e-06  1.0000e-03  8.0000e-04  1.0000e-05  7.0000e-05  7.8914e-09
  1.5272e+00  1.6418e-09  1.7923e-09  6.9667e-10  1.4392e-04  2.1314e-06  1.8103e-06  1.0000e-03  8.0000e-04  1.0000e-05  7.0000e-05  8.3087e-09
  1.5431e+00  1.8174e-09  2.0156e-09  7.5885e-10  1.4392e-04  2.1313e-06  1.8102e-06  1.0000e-03  8.0000e-04  1.0000e-05  7.0000e-05  8.7438e-09
  1.5590e+00  2.0133e-09  2.2686e-09  8.2720e-10  1.4392e-04  2.1312e-06  1.8101e-06  1.0000e-03  8.0000e-04  1.0000e-05  7.0000e-05  9.1972e-09
  1.5748e+00  2.2326e-09  2.5558e-09  9.0251e-10  1.4392e-04  2.1310e-06  1.8100e-06  1.0000e-03  8.0000e-04  1.0000e-05  7.0000e-05  9.6699e-09
  1.5907e+00  2.4786e-09  2.8829e-09  9.8575e-10  1.4392e-04  2.1309e-06  1.8098e-06  1.0000e-03  8.0000e-04  1.0000e-05  7.0000e-05  1.0163e-08
  1.6066e+00  2.7557e-09  3.2565e-09  1.0781e-09  1.4392e-04  2.1307e-06  1.8097e-06  1.0000e-03  8.0000e-04  1.0000e-05  7.0000e-05  1.0676e-08
  1.6225e+00  3.0689e-09  3.6848e-09  1.1808e-09  1.4392e-04  2.1305e-06  1.8095e-06  1.0000e-03  8.0000e-04  1.0000e-05  7.0000e-05  1.1212e-08
  1.6384e+00  3.4247e-09  4.1782e-09  1.2958e-09  1.4392e-04  2.1303e-06  1.8093e-06  1.0000e-03  8.0000e-04  1.0000e-05  7.0000e-05  1.1770e-08
  1.6542e+00  3.8308e-09  4.7493e-09  1.4251e-09  1.4392e-04  2.1300e-06  1.8090e-06  1.0000e-03  8.0000e-04  1.0000e-05  7.0000e-05  1.2353e-08
  1.6701e+00  4.2974e-09  5.4143e-09  1.5713e-09  1.4392e-04  2.1297e-06  1.8087e-06  1.0000e-03  8.0000e-04  1.0000e-05  7.0000e-05  1.2961e-08
  1.6860e+00  4.8370e-09  6.1938e-09  1.7379e-09  1.4392e-04  2.1293e-06  1.8084e-06  1.0000e-03  8.0000e-04  1.0000e-05  7.0000e-05  1.3596e-08
  1.7019e+00  5.4657e-09  7.1143e-09  1.9291e-09  1.4392e-04  2.1289e-06  1.8080e-06  1.0000e-03  8.0000e-04  1.0000e-05  7.0000e-05  1.4260e-08
  1.7178e+00  6.2037e-09  8.2094e-09  2.1503e-09  1.4392e-04  2.1283e-06  1.8075e-06  1.0000e-03  8.0000e-04  1.0000e-05  7.0000e-05  1.4954e-08
  1.7336e+00  7.0771e-09  9.5223e-09  2.4083e-09  1.4392e-04  2.1277e-06  1.8069e-06  1.0000e-03  8.0000e-04  1.0000e-05  7.0000e-05  1.5682e-08
  1.7495e+00  8.1182e-09  1.1108e-08  2.7119e-09  1.4391e-04  2.1269e-06  1.8061e-06  1.0000e-03  8.0000e-04  1.0000e-05  7.0000e-05  1.6446e-08
  1.7654e+00  9.3677e-09  1.3036e-08  3.0718e-09  1.4391e-04  2.1259e-06  1.8052e-06  1.0000e-03  8.0000e-04  1.0000e-05  7.0000e-05  1.7248e-08
  1.7813e+00  1.0876e-08  1.5392e-08  3.5011e-09  1.4391e-04  2.1247e-06  1.8041e-06  1.0000e-03  8.0000e-04  1.0000e-05  7.0000e-05  1.8094e-08
  1.7972e+00  1.2702e-08  1.8282e-08  4.0160e-09  1.4391e-04  2.1232e-06  1.8027e-06  1.0000e-03  8.0000e-04  1.0000e-05  7.0000e-05  1.8987e-08
  1.8130e+00  1.4920e-08  2.1832e-08  4.6355e-09  1.4391e-04  2.1214e-06  1.8010e-06  1.0000e-03  8.0000e-04  1.0000e-05  7.0000e-05  1.9932e-08
  1.8289e+00  1.7611e-08  2.6191e-08  5.3817e-09  1.4391e-04  2.1191e-06  1.7989e-06  1.0000e-03  8.0000e-04  1.0000e-05  7.0000e-05  2.0935e-08
  1.8448e+00  2.0873e-08  3.1530e-08  6.2797e-09  1.4391e-04  2.1163e-06  1.7963e-06  1.0000e-03  8.0000e-04  1.0000e-05  7.0000e-05  2.2002e-08
  1.8607e+00  2.4808e-08  3.8041e-08  7.3574e-09  1.4390e-04  2.1130e-06  1.7931e-06  1.0000e-03  8.0000e-04  1.0000e-05  7.0000e-05  2.3140e-08
  1.8766e+00  2.9533e-08  4.5932e-08  8.6445e-09  1.4390e-04  2.1090e-06  1.7893e-06  1.0000e-03  8.0000e-04  1.0000e-05  7.0000e-05  2.4357e-08
  1.8924e+00  3.5166e-08  5.5425e-08  1.0172e-08  1.4390e-04  2.1042e-06  1.7848e-06  1.0000e-03  8.0000e-04  1.0000e-05  7.0000e-05  2.5660e-08
  1.9083e+00  4.1830e-08  6.6752e-08  1.1973e-08  1.4389e-04  2.0985e-06  1.7795e-06  1.0000e-03  8.0000e-04  1.0000e-05  7.0000e-05  2.7058e-08
  1.9242e+00  4.9648e-08  8.0145e-08  1.4076e-08  1.4389e-04  2.0920e-06  1.7734e-06  1.0000e-03  8.0000e-04  1.0000e-05  7.0000e-05  2.8561e-08
  1.9401e+00  5.8739e-08  9.5832e-08  1.6514e-08  1.4388e-04  2.0845e-06  1.7663e-06  1.0000e-03  8.0000e-04  1.0000e-05  7.0000e-05  3.0176e-08
  1.9560e+00  6.9215e-08  1.1404e-07  1.9312e-08  1.4388e-04  2.0760e-06  1.7582e-06  1.0000e-03  8.0000e-04  1.0000e-05  7.0000e-05  3.1913e-08
  1.9718e+00  8.1180e-08  1.3496e-07  2.2496e-08  1.4387e-04  2.0664e-06  1.7492e-06  1.0000e-03  8.0000e-04  1.0000e-05  7.0000e-05  3.3781e-08
  1.9877e+00  9.4726e-08  1.5880e-07  2.6086e-08  1.4386e-04  2.0559e-06  1.7392e-06  1.0000e-03  8.0000e-04  1.0000e-05  7.0000e-05  3.5791e-08
  2.0036e+00  1.0993e-07  1.8572e-07  3.0099e-08  1.4386e-04  2.0444e-06  1.7283e-06  1.0000e-03  8.0000e-04  1.0000e-05  7.0000e-05  3.7951e-08
  2.0195e+00  1.2687e-07  2.1587e-07  3.4549e-08  1.4385e-04  2.0320e-06  1.7165e-06  1.0000e-03  8.0000e-04  1.0000e-05  7.0000e-05  4.0270e-08
  2.0353e+00  1.4560e-07  2.4939e-07  3.9446e-08  1.4384e-04  2.0187e-06  1.7038e-06  1.0000e-03  8.0000e-04  1.0000e-05  7.0000e-05  4.2759e-08
  2.0512e+00  1.6616e-07  2.8639e-07  4.4797e-08  1.4383e-04  2.0046e-06  1.6904e-06  1.0000e-03  8.0000e-04  1.0000e-05  7.0000e-05  4.5428e-08
  2.0671e+00  1.8859e-07  3.2697e-07  5.0605e-08  1.4382e-04  1.9898e-06  1.6763e-06  1.0000e-03  8.0000e-04  1.0000e-05  7.0000e-05  4.8285e-08
  2.0830e+00  2.1293e-07  3.7123e-07  5.6873e-08  1.4381e-04  1.9745e-06  1.6616e-06  1.0000e-03  8.0000e-04  1.0000e-05  7.0000e-05  5.1341e-08
  2.0989e+00  2.3920e-07  4.1925e-07  6.3602e-08  1.4379e-04  1.9586e-06  1.6464e-06  1.0000e-03  8.0000e-04  1.0000e-05  7.0000e-05  5.4606e-08
  2.1147e+00  2.6743e-07  4.7112e-07  7.0792e-08  1.4378e-04  1.9423e-06  1.6307e-06  1.0000e-03  8.0000e-04  1.0000e-05  7.0000e-05  5.8090e-08
  2.1306e+00  2.9765e-07  5.2691e-07  7.8445e-08  1.4377e-04  1.9258e-06  1.6147e-06  1.0000e-03  8.0000e-04  1.0000e-05  7.0000e-05  6.1803e-08
  2.1465e+00  3.2987e-07  5.8671e-07  8.6560e-08  1.4376e-04  1.9090e-06  1.5985e-06  1.0000e-03  8.0000e-04  1.0000e-05  7.0000e-05  6.5756e-08
  2.1624e+00  3.6412e-07  6.5061e-07  9.5140e-08  1.4374e-04  1.8920e-06  1.5820e-06  1.0000e-03  8.0000e-04  1.0000e-05  7.0000e-05  6.9959e-08
  2.1783e+00  4.0044e-07  7.1872e-07  1.0419e-07  1.4373e-04  1.8749e-06  1.5655e-06  1.0000e-03  8.0000e-04  1.0000e-05  7.0000e-05  7.4425e-08
  2.1941e+00  4.3887e-07  7.9113e-07  1.1370e-07  1.4372e-04  1.8578e-06  1.5488e-06  1.0000e-03  8.0000e-04  1.0000e-05  7.0000e-05  7.9163e-08
  2.2100e+00  4.7943e-07  8.6795e-07  1.2369e-07  1.4371e-04  1.8408e-06  1.5321e-06  1.0000e-03  8.0000e-04  1.0000e-05  7.0000e-05  8.4187e-08
  2.2259e+00  5.2216e-07  9.4930e-07  1.3416e-07  1.4369e-04  1.8238e-06  1.5154e-06  1.0000e-03  8.0000e-04  1.0000e-05  7.0000e-05  8.9508e-08
  2.2418e+00  5.6712e-07  1.0353e-06  1.4512e-07  1.4368e-04  1.8069e-06  1.4988e-06  1.0000e-03  8.0000e-04  1.0000e-05  7.0000e-05  9.5140e-08
  2.2577e+00  6.1433e-07  1.1261e-06  1.5657e-07  1.4367e-04  1.7901e-06  1.4822e-06  1.0000e-03  8.0000e-04  1.0000e-05  7.0000e-05  1.0110e-07
  2.2735e+00  6.6386e-07  1.2217e-06  1.6851e-07  1.4365e-04  1.7734e-06  1.4657e-06  1.0000e-03  8.0000e-04  1.0000e-05  7.0000e-05  1.0739e-07
  2.2894e+00  7.1574e-07  1.3224e-06  1.8096e-07  1.4364e-04  1.7569e-06  1.4492e-06  1.0000e-03  8.0000e-04  1.0000e-05  7.0000e-05  1.1404e-07
  2.3053e+00  7.7001e-07  1.4283e-06  1.9391e-07  1.4363e-04  1.7406e-06  1.4329e-06  1.0000e-03  8.0000e-04  1.0000e-05  7.0000e-05  1.2106e-07
  2.3212e+00  8.2672e-07  1.5394e-06  2.0739e-07  1.4361e-04  1.7245e-06  1.4167e-06  1.0000e-03  8.0000e-04  1.0000e-05  7.0000e-05  1.2846e-07
  2.3371e+00  8.8591e-07  1.6560e-06  2.2138e-07  1.4360e-04  1.7085e-06  1.4006e-06  1.0000e-03  8.0000e-04  1.0000e-05  7.0000e-05  1.3627e-07
